time,seconds_elapsed,relativeAltitude,pressure
1671363196756654600,-0.555345458984375,0,999.7166442871094
1671363197757226500,0.4452265625,0.00792694091796875,999.7157287597656
1671363198757802500,1.445802490234375,0.0158538818359375,999.7148132324219
1671363199758379500,2.446379638671875,0.06341552734375,999.7091674804688
1671363200758955500,3.44695556640625,0.06341552734375,999.7091674804688
1671363201759530500,4.447530517578125,0.05284881591796875,999.7104644775391
1671363202310484700,4.998484619140625,-0.0660552978515625,999.7246551513672
1671363203311059500,5.9990595703125,-0.0792694091796875,999.7261047363281
1671363204311636700,6.99963671875,-0.132110595703125,999.7325134277344
1671363205312208600,8.000208740234376,-0.1743927001953125,999.7374725341797
1671363206312787500,9.000787353515625,-0.208740234375,999.7416687011719
1671363207313367600,10.001367431640626,-0.2113800048828125,999.7419738769531
1671363208313943600,11.001943603515626,-0.22723388671875,999.7435760498047
1671363209314515700,12.002515625,-0.22723388671875,999.7435760498047
1671363210315100700,13.0031005859375,-0.221954345703125,999.7430419921875
1671363211315671800,14.003671875,-0.21666717529296875,999.7425079345703
1671363212316244500,15.004244384765625,-0.21666717529296875,999.7425079345703
1671363213316824600,16.004824462890625,-0.208740234375,999.7415924072266
1671363214317399600,17.005399658203125,-0.208740234375,999.7415924072266
1671363215317980400,18.00598046875,-0.21930694580078125,999.7428894042969
1671363216318556700,19.006556640625,-0.23252105712890625,999.7442626953125
1671363217319125800,20.007125732421876,-0.25101470947265625,999.7464752197266
1671363218319700500,21.007700439453124,-0.258941650390625,999.7475433349609
1671363219320278500,22.008278564453125,-0.26158905029296875,999.7478485107422
1671363220320857600,23.008857666015626,-0.258941650390625,999.7475433349609
1671363221321428500,24.009428466796876,-0.26158905029296875,999.7478485107422
1671363222322008600,25.010008544921874,-0.26422882080078125,999.7480010986328
1671363223322584600,26.01058447265625,-0.26422882080078125,999.7480773925781
1671363224323161600,27.01116162109375,-0.2747955322265625,999.7494506835938
1671363225323738600,28.011738525390626,-0.27744293212890625,999.7496795654297
1671363226324314600,29.012314697265627,-0.27744293212890625,999.7496795654297
1671363227324887600,30.012887451171874,-0.2695159912109375,999.7488403320312
1671363228325467600,31.013467529296875,-0.26686859130859375,999.7484588623047
1671363229326048500,32.014048583984376,-0.2695159912109375,999.7488403320312
1671363230326618600,33.01461865234375,-0.28008270263671875,999.7498321533203
1671363231327202600,34.01520263671875,-0.285369873046875,999.7505187988281
1671363232327771600,35.015771728515624,-0.2880096435546875,999.7508239746094
1671363233328351500,36.0163515625,-0.2880096435546875,999.7510528564453
1671363234328922600,37.016922607421876,-0.2880096435546875,999.7508239746094
1671363235329500700,38.01750073242187,-0.29593658447265625,999.7518157958984
1671363236330078700,39.01807861328125,-0.29857635498046875,999.7521209716797
1671363237330661600,40.01866162109375,-0.29857635498046875,999.7522735595703
1671363238331230700,41.019230712890625,-0.3197174072265625,999.7547912597656
1671363239331813600,42.01981372070313,-0.322357177734375,999.7549438476562
1671363240332380400,43.02038037109375,-0.3355712890625,999.7566223144531
1671363241332954600,44.02095458984375,-0.3355712890625,999.7566223144531
1671363242333677600,45.021677490234374,-0.322357177734375,999.7550964355469
1671363243334112800,46.02211279296875,-0.30915069580078125,999.7534942626953
1671363244334689500,47.022689453125,-0.30915069580078125,999.7534942626953
1671363245335265500,48.023265625,-0.31443023681640625,999.7541809082031
1671363246335839500,49.023839599609374,-0.32764434814453125,999.7557067871094
1671363247336415500,50.02441552734375,-0.3382110595703125,999.7570037841797
1671363248336992500,51.02499243164063,-0.36199188232421875,999.7598266601562
1671363249337573600,52.02557373046875,-0.36199188232421875,999.7598266601562
1671363250338146600,53.026146484375,-0.35406494140625,999.7589111328125
1671363251338726400,54.02672631835937,-0.35406494140625,999.7588348388672
1671363252339297500,55.02729760742187,-0.34613800048828125,999.7577667236328
1671363253339877600,56.027877685546876,-0.34613800048828125,999.7579193115234
1671363254340455400,57.02845532226563,-0.34613800048828125,999.7579193115234
1671363255341031400,58.029031494140625,-0.348785400390625,999.7581481933594
1671363256341613600,59.02961352539062,-0.348785400390625,999.7581481933594
1671363257342184400,60.03018432617188,-0.348785400390625,999.7581481933594
1671363258342763800,61.030763671875,-0.34613800048828125,999.7577667236328
1671363259343609600,62.031609619140625,-0.3514251708984375,999.7583770751953
1671363260343911700,63.03191162109375,-0.35671234130859375,999.7590637207031
1671363261344487700,64.03248779296875,-0.37784576416015625,999.7615814208984
1671363262345064700,65.03306469726563,-0.3831329345703125,999.7621917724609
1671363263345638400,66.03363842773437,-0.38842010498046875,999.7627258300781
1671363264346222600,67.03422265625,-0.38842010498046875,999.7628021240234
1671363265346793700,68.03479370117188,-0.38842010498046875,999.7628021240234
1671363266347368400,69.03536840820313,-0.38842010498046875,999.7628021240234
1671363267347947500,70.03594750976562,-0.40955352783203125,999.7652435302734
1671363268348526600,71.03652661132813,-0.430694580078125,999.7679901123047
1671363269349097500,72.03709741210938,-0.43862152099609375,999.7686767578125
1671363270349680600,73.0376806640625,-0.44126129150390625,999.7690582275391
1671363271350254600,74.03825463867187,-0.449188232421875,999.7700500488281
1671363272350832400,75.03883227539062,-0.449188232421875,999.7700500488281
1671363273351406600,76.03940649414062,-0.430694580078125,999.7679901123047
1671363274351984400,77.039984375,-0.430694580078125,999.7678375244141
1671363275352559600,78.0405595703125,-0.430694580078125,999.7679901123047
1671363276353132500,79.04113256835937,-0.42540740966796875,999.7673034667969
1671363277353709600,80.04170947265625,-0.4333343505859375,999.7681427001953
1671363278354373400,81.04237329101562,-0.44390869140625,999.7693634033203
1671363279354858800,82.04285864257812,-0.4465484619140625,999.7696685791016
1671363280355438600,83.0434384765625,-0.4465484619140625,999.7696685791016
1671363281356016600,84.0440166015625,-0.44390869140625,999.7695159912109
1671363282356591400,85.04459130859375,-0.44126129150390625,999.7691345214844
1671363283357166600,86.04516650390624,-0.4280548095703125,999.7674560546875
1671363284357747500,87.04574755859375,-0.42540740966796875,999.7673034667969
1671363285358325500,88.04632543945313,-0.42276763916015625,999.7669219970703
1671363286358894600,89.04689453125,-0.42276763916015625,999.7669219970703
1671363287359471600,90.0474716796875,-0.42276763916015625,999.7669219970703
1671363288360047600,91.04804760742188,-0.44126129150390625,999.7689819335938
1671363289360628500,92.04862841796874,-0.44126129150390625,999.7689819335938
1671363290361194500,93.04919458007812,-0.44390869140625,999.7695159912109
1671363291361782500,94.04978247070312,-0.44126129150390625,999.7691345214844
1671363292362354400,95.0503544921875,-0.44126129150390625,999.7691345214844
1671363293362929700,96.0509296875,-0.44126129150390625,999.7689819335938
1671363294363506400,97.05150634765624,-0.44126129150390625,999.7689819335938
1671363295364078600,98.05207861328125,-0.43862152099609375,999.7689056396484
1671363296364657700,99.05265771484375,-0.43862152099609375,999.7689056396484
1671363297365239600,100.05323950195313,-0.45447540283203125,999.7705841064453
1671363298365820700,101.05382055664063,-0.46768951416015625,999.7722625732422
1671363299366384400,102.05438427734374,-0.47032928466796875,999.7725677490234
1671363300366965500,103.05496557617188,-0.475616455078125,999.7733306884766
1671363301367540500,104.05554052734375,-0.48882293701171875,999.7747039794922
1671363302368114400,105.05611450195312,-0.48882293701171875,999.7747039794922
1671363303368695600,106.05669555664062,-0.49939727783203125,999.7758483886719
1671363304369270500,107.0572705078125,-0.49939727783203125,999.7759246826172
1671363305369843500,108.05784350585938,-0.49939727783203125,999.7759246826172
1671363306370424600,109.05842456054687,-0.48354339599609375,999.7740936279297
1671363307371000600,110.05900048828126,-0.48354339599609375,999.7740936279297
1671363308371576600,111.05957666015625,-0.4914703369140625,999.7752380371094
1671363309372152600,112.06015258789063,-0.5020370483398438,999.7764587402344
1671363310372730400,113.06073046875,-0.5099639892578125,999.7774505615234
1671363311373306600,114.061306640625,-0.52581787109375,999.7791290283203
1671363312373881600,115.06188159179688,-0.5337448120117188,999.7801208496094
1671363313374454500,116.06245458984375,-0.5311050415039062,999.7798919677734
1671363314375032600,117.06303247070312,-0.5337448120117188,999.7801208496094
1671363315375612400,118.0636123046875,-0.5416717529296875,999.7810363769531
1671363316376191700,119.06419165039063,-0.5443115234375,999.7813415527344
1671363317376761600,120.06476171875,-0.5443115234375,999.7813415527344
1671363318377340700,121.06534057617188,-0.5469589233398438,999.7815704345703
1671363319377917400,122.06591748046876,-0.539031982421875,999.7807312011719
1671363320378489600,123.06648950195313,-0.5469589233398438,999.7815704345703
1671363321379064600,124.06706469726562,-0.5495986938476562,999.7820281982422
1671363322379643600,125.0676435546875,-0.5495986938476562,999.7820281982422
1671363323380222500,126.06822241210938,-0.5443115234375,999.7814178466797
1671363324380797700,127.06879760742187,-0.5337448120117188,999.7801971435547
1671363325381615600,128.06961572265624,-0.5337448120117188,999.7801208496094
1671363326381945600,129.06994555664062,-0.5337448120117188,999.7801971435547
1671363327382523600,130.07052368164062,-0.5522384643554688,999.7822570800781
1671363328383097600,131.07109765625,-0.5548858642578125,999.78271484375
1671363329383675600,132.07167553710937,-0.5628128051757812,999.7834777832031
1671363330384256500,133.07225659179687,-0.5548858642578125,999.78271484375
1671363331384826600,134.07282666015624,-0.5522384643554688,999.7824859619141
1671363332385404700,135.07340478515624,-0.5522384643554688,999.7824859619141
1671363333385982500,136.073982421875,-0.5548858642578125,999.7826385498047
1671363334386557700,137.0745576171875,-0.5548858642578125,999.7826385498047
1671363335387135500,138.07513549804688,-0.5628128051757812,999.7834014892578
1671363336387710500,139.07571044921875,-0.5601654052734375,999.7833251953125
1671363337388286500,140.07628637695314,-0.5601654052734375,999.7833251953125
1671363338388862700,141.07686279296874,-0.5443115234375,999.7813415527344
1671363339389440500,142.0774404296875,-0.5443115234375,999.7813415527344
1671363340390013400,143.07801342773436,-0.5628128051757812,999.7834777832031
1671363341390593500,144.07859350585937,-0.5628128051757812,999.7834777832031
1671363342391505400,145.07950537109375,-0.5628128051757812,999.7834777832031
1671363343391742500,146.07974243164062,-0.5628128051757812,999.7837066650391
1671363344392318500,147.080318359375,-0.5628128051757812,999.7834014892578
1671363345392904400,148.08090454101563,-0.5443115234375,999.7813415527344
1671363346393475600,149.0814755859375,-0.5443115234375,999.7813415527344
1671363347394051600,150.08205151367187,-0.5548858642578125,999.7825622558594
1671363348394627600,151.08262768554687,-0.5628128051757812,999.7836303710938
1671363349395200500,152.08320043945312,-0.5680923461914062,999.7843170166016
1671363350395780600,153.08378051757813,-0.6130142211914062,999.7894287109375
1671363351396352500,154.0843525390625,-0.6288681030273438,999.7914886474609
1671363352396932600,155.0849326171875,-0.6341552734375,999.7919464111328
1671363353397506600,156.08550659179687,-0.6367950439453125,999.79248046875
1671363354398085600,157.08608569335937,-0.671142578125,999.7964477539062
1671363355398655700,158.08665576171876,-0.671142578125,999.7966003417969
1671363356399232500,159.087232421875,-0.6896438598632812,999.7987365722656
1671363357399812400,160.08781225585938,-0.69757080078125,999.7995758056641
1671363358400386600,161.08838647460936,-0.69757080078125,999.7995758056641
1671363359400963600,162.08896362304688,-0.6949234008789062,999.7993469238281
1671363360401544400,163.08954443359374,-0.6790695190429688,999.7972869873047
1671363361402117400,164.09011743164064,-0.665863037109375,999.7956848144531
1671363362402694400,165.0906943359375,-0.6579360961914062,999.7949981689453
1671363363403267600,166.091267578125,-0.6315078735351562,999.7918701171875
1671363364403849700,167.091849609375,-0.6315078735351562,999.7917175292969
1671363365404419600,168.09241967773437,-0.6288681030273438,999.7913360595703
1671363366404994600,169.09299462890624,-0.6130142211914062,999.7894287109375
1671363367405579500,170.09357958984376,-0.5865936279296875,999.7864532470703
1671363368406149600,171.09414965820312,-0.5839462280273438,999.7859954833984
1671363369406728400,172.094728515625,-0.5654525756835938,999.7840118408203
1671363370407309600,173.0953095703125,-0.5654525756835938,999.7838592529297
1671363371407880400,174.09588037109376,-0.5654525756835938,999.7838592529297
1671363372408454700,175.09645458984374,-0.5733795166015625,999.7846984863281
1671363373409035800,176.09703588867188,-0.5733795166015625,999.7846984863281
1671363374409606400,177.0976064453125,-0.57073974609375,999.7845458984375
1671363375410185500,178.098185546875,-0.57073974609375,999.7845458984375
1671363376410760700,179.0987607421875,-0.5680923461914062,999.7841644287109
1671363377411344600,180.0993447265625,-0.5654525756835938,999.7840881347656
1671363378411912700,181.09991259765624,-0.5522384643554688,999.7821807861328
1671363379412489700,182.10048974609376,-0.5522384643554688,999.7821807861328
1671363380413068500,183.1010686035156,-0.5495986938476562,999.7820281982422
1671363381413643500,184.1016435546875,-0.5522384643554688,999.7822570800781
1671363382414218800,185.10221875,-0.5786666870117188,999.7853088378906
1671363383414794800,186.10279467773438,-0.5865936279296875,999.7863006591797
1671363384415370500,187.10337060546874,-0.5971603393554688,999.7878265380859
1671363385415945500,188.10394555664064,-0.6050872802734375,999.7884368896484
1671363386416523500,189.1045234375,-0.6050872802734375,999.7884368896484
1671363387417100500,190.1051005859375,-0.6156539916992188,999.7896575927734
1671363388417673500,191.10567358398438,-0.6130142211914062,999.7895050048828
1671363389418251500,192.10625146484375,-0.6156539916992188,999.7896575927734
1671363390418828500,193.10682861328124,-0.6130142211914062,999.7895050048828
1671363391419407600,194.10740771484376,-0.5918731689453125,999.7871398925781
1671363392419978500,195.107978515625,-0.5865936279296875,999.7863006591797
1671363393420896500,196.108896484375,-0.5839462280273438,999.7861480712891
1671363394421139500,197.10913940429688,-0.576019287109375,999.78515625
1671363395421709600,198.10970947265625,-0.576019287109375,999.7850036621094
1671363396422285600,199.11028564453125,-0.57073974609375,999.7846221923828
1671363397422860500,200.11086059570312,-0.5654525756835938,999.7838592529297
1671363398423609600,201.11160961914064,-0.5601654052734375,999.7832489013672
1671363399424018700,202.11201879882813,-0.557525634765625,999.7827911376953
1671363400424596500,203.11259643554686,-0.557525634765625,999.7827911376953
1671363401425164500,204.11316455078125,-0.5601654052734375,999.7833251953125
1671363402425745400,205.1137453613281,-0.5628128051757812,999.7837066650391
1671363403426324500,206.11432446289064,-0.5628128051757812,999.7837066650391
1671363404426900700,207.11490063476563,-0.5628128051757812,999.7837066650391
1671363405427473700,208.1154736328125,-0.602447509765625,999.7882843017578
1671363406428048600,209.11604858398437,-0.602447509765625,999.7882843017578
1671363407428625700,210.11662573242188,-0.6050872802734375,999.7884368896484
1671363408429197600,211.11719750976562,-0.6183013916015625,999.7902679443359
1671363409429776600,212.1177766113281,-0.6183013916015625,999.7902679443359
1671363410430353700,213.11835375976563,-0.60772705078125,999.7890472412109
1671363411430931500,214.11893139648438,-0.60772705078125,999.7890472412109
1671363412431509500,215.1195095214844,-0.6235809326171875,999.7908782958984
1671363413432085500,216.12008544921875,-0.6235809326171875,999.7908782958984
1671363414432660500,217.12066040039062,-0.6235809326171875,999.7908782958984
1671363415433240600,218.12124047851563,-0.6315078735351562,999.7918701171875
1671363416433812700,219.1218127441406,-0.6315078735351562,999.7918701171875
1671363417434387700,220.1223876953125,-0.6183013916015625,999.7899627685547
1671363418435174400,221.12317431640625,-0.6183013916015625,999.7899627685547
1671363419435538400,222.12353833007813,-0.620941162109375,999.7906494140625
1671363420436117800,223.12411767578126,-0.620941162109375,999.7906494140625
1671363421436695600,224.12469555664063,-0.620941162109375,999.7906494140625
1671363422437268500,225.1252685546875,-0.639434814453125,999.7926330566406
1671363423438019600,226.12601953125,-0.6579360961914062,999.7949981689453
1671363424438429700,227.1264296875,-0.665863037109375,999.7958374023438
1671363425439003400,228.12700341796875,-0.665863037109375,999.7959136962891
1671363426439575600,229.12757543945312,-0.6685028076171875,999.7960662841797
1671363427440149500,230.1281494140625,-0.671142578125,999.7962951660156
1671363428440727600,231.1287275390625,-0.6764297485351562,999.7969818115234
1671363429441303600,232.12930346679687,-0.671142578125,999.7962951660156
1671363430441877500,233.12987744140625,-0.671142578125,999.7962951660156
1671363431442454500,234.13045458984374,-0.671142578125,999.7962951660156
1671363432443033300,235.13103344726562,-0.671142578125,999.7966003417969
1671363433443610600,236.13161059570314,-0.6764297485351562,999.7970581054688
1671363434444186600,237.1321865234375,-0.6764297485351562,999.7971343994141
1671363435444765400,238.13276538085938,-0.684356689453125,999.7979736328125
1671363436445335600,239.13333544921875,-0.684356689453125,999.7979736328125
1671363437445915400,240.13391528320312,-0.6817169189453125,999.7975921630859
1671363438446605600,241.13460546875,-0.6632156372070312,999.7955322265625
1671363439447072500,242.13507250976562,-0.6473617553710938,999.7935485839844
1671363440447642600,243.135642578125,-0.6447219848632812,999.7934722900391
1671363441448218600,244.13621850585938,-0.6420822143554688,999.7929382324219
1671363442448799500,245.13679956054688,-0.6367950439453125,999.7924041748047
1671363443449374700,246.13737475585938,-0.6367950439453125,999.7924041748047
1671363444449947600,247.13794775390625,-0.6367950439453125,999.7922515869141
1671363445450622500,248.13862255859374,-0.620941162109375,999.7904205322266
1671363446451098600,249.1390986328125,-0.5813064575195312,999.7859191894531
1671363447451677400,250.13967749023436,-0.5654525756835938,999.7840881347656
1671363448452253700,251.1402536621094,-0.5601654052734375,999.7830963134766
1671363449452828700,252.14082861328126,-0.5548858642578125,999.78271484375
1671363450453468700,253.14146875,-0.5601654052734375,999.7830963134766
1671363451453980700,254.14198071289061,-0.5654525756835938,999.7838592529297
1671363452454557700,255.1425576171875,-0.5971603393554688,999.7878265380859
1671363453455132400,256.14313232421875,-0.6235809326171875,999.7908020019531
1671363454455714600,257.1437145996094,-0.6367950439453125,999.79248046875
1671363455456294700,258.14429467773436,-0.65264892578125,999.7943878173828
1671363456456867600,259.14486767578126,-0.65264892578125,999.7943878173828
1671363457457442600,260.1454426269531,-0.6367950439453125,999.7924041748047
1671363458458014500,261.14601440429686,-0.6183013916015625,999.7899627685547
